STATE= 1
j12= 0
m12= 0
ENERGY#1, U(i)= 500.000 cm^-1
J_TOTAL     B_IMPACT     CHANNEL=  1  
    0    0.00000000E+00  0.58429E-01 
    1    0.36446292E+00  0.17529E+00 
    2    0.63126830E+00  0.29215E+00 
    3    0.89274820E+00  0.40900E+00 
    4    0.11525330E+01  0.52586E+00 
    5    0.14115588E+01  0.64272E+00 
    6    0.16701789E+01  0.75958E+00 
    7    0.19285565E+01  0.87644E+00 
    8    0.21867775E+01  0.99329E+00 
    9    0.24448916E+01  0.11102E+01 
   10    0.27029294E+01  0.12270E+01 
   11    0.29609108E+01  0.13439E+01 
   12    0.32188494E+01  0.14607E+01 
   13    0.34767547E+01  0.15776E+01 
   14    0.37346336E+01  0.16944E+01 
   15    0.39924913E+01  0.18113E+01 
   16    0.42503316E+01  0.19282E+01 
   17    0.45081574E+01  0.20450E+01 
   18    0.47659712E+01  0.21619E+01 
   19    0.50237747E+01  0.22787E+01 
   20    0.52815695E+01  0.23956E+01 
   21    0.55393569E+01  0.25124E+01 
   22    0.57971377E+01  0.26293E+01 
   23    0.60549129E+01  0.27462E+01 
   24    0.63126830E+01  0.28630E+01 
   25    0.65704488E+01  0.29799E+01 
   26    0.68282107E+01  0.30967E+01 
   27    0.70859691E+01  0.32136E+01 
   28    0.73437244E+01  0.33305E+01 
   29    0.76014770E+01  0.34473E+01 
   30    0.78592270E+01  0.35642E+01 
   31    0.81169747E+01  0.36810E+01 
   32    0.83747204E+01  0.37979E+01 
   33    0.86324642E+01  0.39147E+01 
   34    0.88902063E+01  0.40316E+01 
   35    0.91479468E+01  0.41485E+01 
   36    0.94056859E+01  0.42653E+01 
   37    0.96634236E+01  0.43822E+01 
   38    0.99211601E+01  0.44990E+01 
   39    0.10178896E+02  0.46159E+01 
   40    0.10436630E+02  0.47328E+01 
   41    0.10694363E+02  0.48496E+01 
   42    0.10952096E+02  0.49665E+01 
   43    0.11209827E+02  0.50833E+01 
   44    0.11467558E+02  0.52002E+01 
   45    0.11725288E+02  0.53170E+01 
   46    0.11983018E+02  0.54339E+01 
   47    0.12240747E+02  0.55508E+01 
   48    0.12498475E+02  0.56676E+01 
   49    0.12756202E+02  0.57845E+01 
   50    0.13013929E+02  0.59013E+01 
   51    0.13271656E+02  0.60182E+01 
   52    0.13529382E+02  0.61351E+01 
   53    0.13787108E+02  0.62519E+01 
   54    0.14044833E+02  0.63688E+01 
   55    0.14302558E+02  0.64856E+01 
   56    0.14560282E+02  0.66025E+01 
   57    0.14818007E+02  0.67193E+01 
   58    0.15075730E+02  0.68362E+01 
   59    0.15333454E+02  0.69531E+01 
   60    0.15591177E+02  0.70699E+01 
   61    0.15848900E+02  0.71868E+01 
   62    0.16106622E+02  0.73036E+01 
   63    0.16364345E+02  0.74205E+01 
   64    0.16622067E+02  0.75373E+01 
   65    0.16879789E+02  0.76542E+01 
   66    0.17137510E+02  0.77711E+01 
   67    0.17395232E+02  0.78879E+01 
   68    0.17652953E+02  0.80048E+01 
   69    0.17910674E+02  0.81216E+01 
   70    0.18168395E+02  0.82385E+01 
   71    0.18426115E+02  0.83554E+01 
   72    0.18683836E+02  0.84722E+01 
   73    0.18941556E+02  0.85891E+01 
   74    0.19199276E+02  0.87059E+01 
   75    0.19456996E+02  0.88228E+01 
   76    0.19714716E+02  0.89396E+01 
   77    0.19972435E+02  0.90565E+01 
   78    0.20230155E+02  0.91734E+01 
   79    0.20487874E+02  0.92902E+01 
   80    0.20745593E+02  0.94071E+01 
   81    0.21003312E+02  0.95239E+01 
   82    0.21261031E+02  0.96408E+01 
   83    0.21518750E+02  0.97577E+01 
   84    0.21776469E+02  0.98745E+01 
   85    0.22034188E+02  0.99914E+01 
   86    0.22291906E+02  0.10108E+02 
   87    0.22549625E+02  0.10225E+02 
   88    0.22807343E+02  0.10342E+02 
   89    0.23065061E+02  0.10459E+02 
   90    0.23322780E+02  0.10576E+02 
   91    0.23580498E+02  0.10693E+02 
   92    0.23838216E+02  0.10809E+02 
   93    0.24095934E+02  0.10926E+02 
   94    0.24353652E+02  0.11043E+02 
   95    0.24611369E+02  0.11160E+02 
   96    0.24869087E+02  0.11277E+02 
   97    0.25126805E+02  0.11394E+02 
   98    0.25384522E+02  0.11511E+02 
   99    0.25642240E+02  0.11627E+02 
  100    0.25899957E+02  0.11744E+02 
  101    0.26157674E+02  0.11861E+02 
  102    0.26415392E+02  0.11978E+02 
  103    0.26673109E+02  0.12095E+02 
  104    0.26930826E+02  0.12212E+02 
  105    0.27188543E+02  0.12329E+02 
  106    0.27446260E+02  0.12445E+02 
  107    0.27703977E+02  0.12562E+02 
  108    0.27961694E+02  0.12679E+02 
  109    0.28219411E+02  0.12796E+02 
  110    0.28477128E+02  0.12913E+02 
  111    0.28734845E+02  0.13030E+02 
  112    0.28992562E+02  0.13147E+02 
  113    0.29250278E+02  0.13263E+02 
  114    0.29507995E+02  0.13380E+02 
  115    0.29765712E+02  0.13497E+02 
  116    0.30023428E+02  0.13614E+02 
